t,x(t)
0,0.
1,0.1902456862381846
2,0.3655489380841153
3,0.5319560385145957
4,0.6946519581897048
5,0.8581808706670804
6,1.026627136185991
7,1.2037643900426342
8,1.393179626570402
9,1.598378112867124
10,1.8228715038949186
11,2.070253822741644
12,2.3442643615303447
13,2.6488407948053054
14,2.9881600599327878
15,3.3666627189490694
16,3.7890615359903363
17,4.260322308100732
18,4.7856087093204565
19,5.370179398276686
20,6.01921558633837
21,6.737556144255185
22,7.529310914879825
23,8.397319799891926
24,9.34241531568443
25,10.362469151577034
26,11.451207431265944
27,12.596830222015186
28,13.780539735462616
29,14.975187733870078
30,16.14438390598538
31,17.242531725160227
32,18.216312513338526
33,19.00803258536183
34,19.56090416758375
35,19.825755152147963
36,19.768014671164742
37,19.37335416390069
38,18.650475772641336
39,17.630201885098185
40,16.36109060107508
41,14.902774626796324
42,13.318676351912355
43,11.669596664702569
44,10.00910072631138
45,8.380953418145301
46,6.81835736229913
47,5.3444907207208825
48,3.9738009946790944
49,2.713625682469519
50,1.5658266386257256
51,0.5282638617232704
52,-0.40396284029614754
53,-1.2375305423161782
54,-1.9801376080382078
55,-2.639947579707307
56,-3.2251937691431274
57,-3.7439069347036904
58,-4.203736768562891
59,-4.611842304858334
60,-4.9748305318498325
61,-5.298733144968583
62,-5.589001676188201
63,-5.85052543105145
64,-6.087651014556026
65,-6.304217638144757
66,-6.503587567213072
67,-6.688679765039704
68,-6.862004722447775
69,-7.025697355371887
70,-7.181548477427407
71,-7.331029952222095
72,-7.4753250971636325
73,-7.615352083228216
74,-7.751786591637104
75,-7.8850826887757846
76,-8.01549225580811
77,-8.143083029936479
78,-8.267756903015908
79,-8.389267738434429
80,-8.507237791015466
81,-8.621177108405007
82,-8.730499960723508
83,-8.834543357735793
84,-8.932587987219428
85,-9.023878575594384
86,-9.107644475088298
87,-9.183121292184223
88,-9.249573619627386
89,-9.306316797434896
90,-9.352737422258175
91,-9.388312879255604
92,-9.412630445132956
93,-9.425403756809576
94,-9.426484163217687
95,-9.415869542733585
96,-9.393709798893866
97,-9.360309979420785
98,-9.31612745122878
99,-9.261763615485942
100,-9.19795367684698
101,-9.125553566235986
102,-9.045524721405046
103,-8.958914854882371
104,-8.866837529461993
105,-8.770452360241574
106,-8.67094521264624
107,-8.569508429622589
108,-8.467322053593403
109,-8.365537434024263
110,-8.265263004090702
111,-8.167551834626195
112,-8.073390505848426
113,-7.983691735187105
114,-7.899289177362271
115,-7.82093412879085
116,-7.749292486159868
117,-7.684945065614991
118,-7.628388348579693
119,-7.580036671396819
120,-7.54022491132338
121,-7.50921160921382
122,-7.487182310532631
123,-7.474252923340991
124,-7.470473050070419
125,-7.47582802610615
126,-7.490242314391406
127,-7.513581854628423
128,-7.545655130190584
129,-7.586212831797451
130,-7.634949315551788
131,-7.6915028949580595
132,-7.755455112181095
133,-7.826328818919017
134,-7.903586361511784
135,-7.986632890000748
136,-8.074811396888547
137,-8.167401556209496
138,-8.263624769158747
139,-8.36264156147479
140,-8.463552452781716
141,-8.5654063606777
142,-8.667202644807599
143,-8.767897063365968
144,-8.866414394768308
145,-8.961656868978203
146,-9.052517880134966
147,-9.137897733279594
148,-9.216720177321603
149,-9.287950355171132
150,-9.350614587037725
151,-9.403820982437498
152,-9.446778518519697
153,-9.47881534823814
154,-9.499395633103967
155,-9.508135413801197
156,-9.50481543954691
157,-9.489387663791696
158,-9.461978934312567
159,-9.422890835321038
160,-9.372596233087476
161,-9.311731103137525
162,-9.241079758031352
163,-9.161558518470889
164,-9.074197102739648
165,-8.980118102363933
166,-8.880514564872424
167,-8.77662610964825
168,-8.669716701812392
169,-8.56105358324576
170,-8.451887303792548
171,-8.343433182373179
172,-8.23685595581463
173,-8.133257185641549
174,-8.0336651058446
175,-7.939026471110954
176,-7.8502001533354475
177,-7.76795571159397
178,-7.692971217799853
179,-7.625833984472183
180,-7.567042232471675
181,-7.517007813353782
182,-7.47605959123706
183,-7.444447147397173
184,-7.42234488262761
185,-7.409856159211944
186,-7.407016028943117
187,-7.4137961543192645
188,-7.430106465177418
189,-7.455796461879439
190,-7.490657584323548
191,-7.534424277579834
192,-7.5867740843788125
193,-7.647326317237268
194,-7.71564142449366
195,-7.791219215453171
196,-7.873500852110292
197,-7.9618613011193125
198,-8.055611488118874
199,-8.1539995378589
200,-8.256205267112778
201,-8.361343137222864
202,-8.468467184401662
203,-8.57656992018619
204,-8.684588706262057
205,-8.791415983070513
206,-8.89590540921061
207,-8.99688465185022
208,-9.093170923422063
209,-9.183585152450183
210,-9.266973378883412
211,-9.342224944848113
212,-9.408291794442707
213,-9.464217716860249
214,-9.509153835498541
215,-9.542376384687156
216,-9.563318221251413
217,-9.571575603015422
218,-9.566916323285598
219,-9.549304100249733
220,-9.518893225070459
221,-9.476021254991968
222,-9.421218404238088
223,-9.355190533287118
224,-9.27879697756717
225,-9.193043460229482
226,-9.099057277146741
227,-8.998057639322335
228,-8.891337676780132
229,-8.78023716718417
230,-8.666115540765801
231,-8.550331846206088
232,-8.434219821789586
233,-8.319071041459766
234,-8.206120174603734
235,-8.096525492051873
236,-7.991363969950327
237,-7.891624997118461
238,-7.798197527552463
239,-7.711874000024523
240,-7.633351850467327
241,-7.563226096270005
242,-7.502000495146431
243,-7.450086487354505
244,-7.407809145192596
245,-7.375411418124774
246,-7.3530588507558265
247,-7.340843960358538
248,-7.338790422805112
249,-7.34685679243148
250,-7.364939773996037
251,-7.392874568884764
252,-7.430441119906879
253,-7.477357446507764
254,-7.533285726982243
255,-7.597830969237923
256,-7.670534298362267
257,-7.750877212414472
258,-7.838278888916584
259,-7.932088166632465
260,-8.031588347122465
261,-8.135994527322866
262,-8.244446578438202
263,-8.356017386794813
264,-8.469710760795774
265,-8.584462744772727
266,-8.699149161776587
267,-8.812593746597512
268,-8.923576139145911
269,-9.030844648223079
270,-9.133133158093125
271,-9.229177095259042
272,-9.317734584317257
273,-9.39761014616049
274,-9.467674443239057
275,-9.526892511634097
276,-9.574346227380842
277,-9.609258035589736
278,-9.631012469143467
279,-9.639174272056056
280,-9.63350284056979
281,-9.613961982486233
282,-9.58072459783173
283,-9.534171427096995
284,-9.474885354816974
285,-9.403638981251579
286,-9.321378002770533
287,-9.229200254565262
288,-9.128331459434689
289,-9.020098593815883
290,-8.905902039047676
291,-8.787187572229346
292,-8.665419141792096
293,-8.542053273847165
294,-8.418515948344815
295,-8.296181316781032
296,-8.176356349012462
297,-8.060265331051122
298,-7.949038764931292
299,-7.843707085756698
300,-7.74519650016192
301,-7.654327040943817
302,-7.571811700812755
303,-7.498258868346564
304,-7.434177001782366
305,-7.379979149726148
306,-7.335987891475529
307,-7.302439855061698
308,-7.279492212707416
309,-7.267226562154069
310,-7.265658304821435
311,-7.27473286569373
312,-7.294334665921716
313,-7.324290198510775
314,-7.364363863952194
315,-7.41426305123632
316,-7.473639138229385
317,-7.542080582700243
318,-7.6191153557255955
319,-7.704210551749119
320,-7.796763626755566
321,-7.896101622031216
322,-8.001486386823297
323,-8.112094531927248
324,-8.227039189556296
325,-8.345344893017804
326,-8.465968930167692
327,-8.587792099451773
328,-8.709625393974628
329,-8.83022458996737
330,-8.948287812106482
331,-9.062482181273175
332,-9.171449582695502
333,-9.273832818905568
334,-9.368291963867389
335,-9.453537952905782
336,-9.52834378358649
337,-9.59158646244448
338,-9.642266753855393
339,-9.679536628078106
340,-9.702723267807738
341,-9.711349667467376
342,-9.70515097078383
343,-9.684085652975028
344,-9.648340782411998
345,-9.59833128849701
346,-9.534692680357624
347,-9.458267396997218
348,-9.37008608149941
349,-9.271342909242124
350,-9.163370076217555
351,-9.047607015948248
352,-8.92556959049006
353,-8.798819014718783
354,-8.668931804679092
355,-8.537471726688047
356,-8.405964496223326
357,-8.275875795844502
358,-8.148592947433562
359,-8.025410617835329
360,-7.907519239477105
361,-7.795998703055289
362,-7.6918140666883685
363,-7.595814499625394
364,-7.508734561650037
365,-7.431197411079
366,-7.363719394866733
367,-7.306715670126251
368,-7.260506644997347
369,-7.225324467538964
370,-7.201319361770341
371,-7.188565770434516
372,-7.187066898295748
373,-7.196760954380649
374,-7.217520742637423
375,-7.249163508479524
376,-7.291444700745186
377,-7.344061555873738
378,-7.40665665373144
379,-7.4788080998045325
380,-7.5600332548088565
381,-7.649787370243227
382,-7.747451448031689
383,-7.852337865791283
384,-7.963684322071552
385,-8.080643686789658
386,-8.20229274442443
387,-8.327623266310937
388,-8.455540153471954
389,-8.584873170803919
390,-8.714371386949024
391,-8.84271505518055
392,-8.968525074420413
393,-9.09037673588603
394,-9.206816937213116
395,-9.31638476034852
396,-9.417635291703265
397,-9.509166246113784
398,-9.589646750820549
399,-9.657847771958506
400,-9.71267259401876
401,-9.753186144355652
402,-9.77864206731686
403,-9.788506235532571
404,-9.782475499790005
405,-9.760490652540986
406,-9.722742829921518
407,-9.669673407384431
408,-9.601965251510729
409,-9.520528091990247
410,-9.426477429867042
411,-9.321108104030182
412,-9.205863776676114
413,-9.082303637394542
414,-8.9520677961524
415,-8.816842692166633
416,-8.678327817339838
417,-8.538204859642306
418,-8.39810969438298
419,-8.259609629900643
420,-8.124182297985024
421,-7.993200958466981
422,-7.8679237443144965
423,-7.749486703506214
424,-7.6389003113385545
425,-7.537048639759532
426,-7.4446913125904715
427,-7.36246863460616
428,-7.290907535125046
429,-7.230428378561142
430,-7.181352304796748
431,-7.1439088797932415
432,-7.11824140321424
433,-7.104417339948155
434,-7.102433806397354
435,-7.112219138221829
436,-7.133639741798063
437,-7.166504201572446
438,-7.210562391011853
439,-7.265505504650975
440,-7.330968152784597
441,-7.406525813763633
442,-7.491689332598427
443,-7.585902099024164
444,-7.6885431426785225
445,-7.798906781575249
446,-7.916217498636626
447,-8.039608809355931
448,-8.168127222727538
449,-8.300734999007133
450,-8.436292013934171
451,-8.573579286308982
452,-8.711282927141154
453,-8.848011370014111
454,-8.982305337471626
455,-9.11264637340101
456,-9.237478579810093
457,-9.355229677938262
458,-9.464336565416245
459,-9.563274302589846
460,-9.650587797848003
461,-9.724925270373856
462,-9.78507263284279
463,-9.829986900072752
464,-9.858827059467657
465,-9.870981197185909
466,-9.866088398976126
467,-9.844054194861542
468,-9.805058605873803
469,-9.749556209820692
470,-9.678268193497239
471,-9.592166452444737
472,-9.492449809690035
473,-9.380514549519429
474,-9.257920382429672
475,-9.126353313624293
476,-8.987587023738358
477,-8.843444329714721
478,-8.69576012479033
479,-8.546346952956728
480,-8.396964433402893
481,-8.24929322920083
482,-8.104913874001333
483,-7.965290500240227
484,-7.831759342390539
485,-7.705521704367484
486,-7.58764093299795
487,-7.479042707608839
488,-7.380518395918071
489,-7.29273082856375
490,-7.216221500095925
491,-7.151418790514222
492,-7.098646752738888
493,-7.058133619049786
494,-7.030021264415205
495,-7.0143712925435935
496,-7.0111732459249625
497,-7.02035053525674
498,-7.041764911093715
499,-7.0752194272759255
500,-7.120459876374082
501,-7.177176050304729
502,-7.2450001395441825
503,-7.323507061670234
504,-7.412206655281568
505,-7.510542315155901
506,-7.6178877555171765
507,-7.733537816365807
508,-7.856702558813941
509,-7.9865057778566735
510,-8.121978133030309
511,-8.262048856143046
512,-8.40554898146129
513,-8.551211040087544
514,-8.69766697559227
515,-8.843456454899629
516,-8.987036779440796
517,-9.126796272367299
518,-9.261071795753372
519,-9.388171364625979
520,-9.506402250017137
521,-9.614102339467623
522,-9.70967398723021
523,-9.791621032079474
524,-9.858588583273898
525,-9.90939985500725
526,-9.943091993139014
527,-9.9589478182289
528,-9.956521871733404
529,-9.935659372186365
530,-9.896506848551821
531,-9.839513736914482
532,-9.765424144090522
533,-9.675261394853502
534,-9.570301140480245
535,-9.45203950151283
536,-9.322155175845095
537,-9.18246787362153
538,-9.034894957866129
539,-8.88140818970932
540,-8.723992162507326
541,-8.564605910815859
542,-8.405148977579051
543,-8.247432489841117
544,-8.093155783492264
545,-7.943888664660678
546,-7.801059146967384
547,-7.665946264156976
548,-7.539677552025195
549,-7.42323006127444
550,-7.317434999853101
551,-7.222984554489773
552,-7.140440531413725
553,-7.070244096183117
554,-7.012726032284449
555,-6.9681170148024325
556,-6.936557974777304
557,-6.9181071598225055
558,-6.9127501473874515
559,-6.920408024194984
560,-6.9409384325592605
561,-6.974141403435399
562,-7.0197638396266555
563,-7.077497165768741
564,-7.146975856128901
565,-7.22777860942952
566,-7.31942302402356
567,-7.421357761908478
568,-7.53296020707746
569,-7.653532496114584
570,-7.782282687134998
571,-7.918336655123906
572,-8.060712079654355
573,-8.208323869984643
574,-8.35998380491745
575,-8.514380396155035
576,-8.67010390842575
577,-8.82563061432243
578,-8.979339073598114
579,-9.12952729132341
580,-9.274421237286571
581,-9.412203925521608
582,-9.541042636408585
583,-9.659122240292696
584,-9.764682947361134
585,-9.856061240142491
586,-9.931732684535245
587,-9.990354997506438
588,-10.030808655447725
589,-10.052235973887594
590,-10.054071207482485
591,-10.03606471448886
592,-9.998297485693168
593,-9.941185395097344
594,-9.865472716305211
595,-9.772214283627186
596,-9.662751840244015
597,-9.538674510970125
598,-9.401779101182766
599,-9.254023610968645
600,-9.097478767317453
601,-8.934279205226561
602,-8.766576327344458
603,-8.596494801514266
604,-8.426094349724877
605,-8.257337340544082
606,-8.09206264714719
607,-7.931965900705394
608,-7.778585660723604
609,-7.633295706626402
610,-7.497303009027361
611,-7.371649445923406
612,-7.257217368449317
613,-7.15473785376668
614,-7.064800935118912
615,-6.987867054744744
616,-6.924278801424452
617,-6.8742735223908245
618,-6.837993841973798
619,-6.815498623200273
620,-6.806772328305904
621,-6.811732842017902
622,-6.830237700319153
623,-6.862088618455075
624,-6.907034262380331
625,-6.964771895351601
626,-7.0349435173876
627,-7.117138069035172
628,-7.210886391837079
629,-7.315649765102625
630,-7.430823207624387
631,-7.555721204136467
632,-7.689566958963436
633,-7.8314955335759855
634,-7.9805316522989935
635,-8.13558787438062
636,-8.295466524856955
637,-8.458837288479563
638,-8.624251205437426
639,-8.790140804576199
640,-8.954813779352442
641,-9.116481467674934
642,-9.273264315341955
643,-9.423217853563957
644,-9.564361837748269
645,-9.69471522432869
646,-9.812336247717743
647,-9.915367002975433
648,-10.002081089119812
649,-10.070932804277108
650,-10.120605227580814
651,-10.150055128580057
652,-10.15854811039409
653,-10.14569296896429
654,-10.111459928835414
655,-10.056189733491903
656,-9.980590081331043
657,-9.885719764233496
658,-9.772961236093549
659,-9.643983047067906
660,-9.500694132220971
661,-9.34519235895103
662,-9.17970991394747
663,-9.00655812181673
664,-8.828074086762054
665,-8.646571130318986
666,-8.464294810095298
667,-8.283385565502124
668,-8.105848622921043
669,-7.93353136148939
670,-7.76810787369367
671,-7.611070332560835
672,-7.463726273091936
673,-7.3272009948053025
674,-7.202444054050184
675,-7.090238987150962
676,-6.991215407492667
677,-6.905861605634302
678,-6.834539930785755
679,-6.777499402166053
680,-6.734889315279782
681,-6.70677157788873
682,-6.693131711076086
683,-6.693888132698522
684,-6.708899634350011
685,-6.737971099626327
686,-6.780856333757075
687,-6.837261725963958
688,-6.906841884213317
689,-6.989201863918207
690,-7.083891641975298
691,-7.1903965339665765
692,-7.308135264443945
693,-7.436450965584286
694,-7.574595114113208
695,-7.721724834335931
696,-7.8768931891888805
697,-8.039029428620074
698,-8.206940675504843
699,-8.379303616661343
700,-8.554653120927172
701,-8.731385586441746
702,-8.907766186629212
703,-9.081931674880527
704,-9.251904150374704
705,-9.415618345610241
706,-9.570945656397141
707,-9.71572941599015
708,-9.847828918860149
709,-9.965166478613549
710,-10.065779794810021
711,-10.147876701327386
712,-10.209891002204468
713,-10.250535837492638
714,-10.26885046177643
715,-10.264238921853888
716,-10.236498214060616
717,-10.185833930745304
718,-10.112862184353846
719,-10.0185979127448
720,-9.904428792045005
721,-9.772075069418152
722,-9.623540440612834
723,-9.461055685657334
724,-9.287017843470789
725,-9.103927861934528
726,-8.914329305380305
727,-8.720750678710948
728,-8.52565401395566
729,-8.331391331356995
730,-8.140169351578164
731,-7.9540226864101315
732,-7.774795341329576
733,-7.604129637211211
734,-7.443461814774386
735,-7.294027348810652
736,-7.156865710201125
737,-7.032832409336122
738,-6.922612619414392
739,-6.82673653747376
740,-6.745595572703261
741,-6.679458651947482
742,-6.628487162511744
743,-6.592751088865448
744,-6.572239109491901
745,-6.566872302530762
746,-6.576512838967447
747,-6.600970247745605
748,-6.640005785928667
749,-6.69333606683024
750,-6.76063344313248
751,-6.841523867321637
752,-6.935581898904535
753,-7.042326012365089
754,-7.161210985361671
755,-7.291618857811627
756,-7.432846647150547
757,-7.5840953730989495
758,-7.744458925594937
759,-7.912912368198328
760,-8.088298573847965
761,-8.269317045279113
762,-8.454518223073796
763,-8.642299073285544
764,-8.8309013359232
765,-9.018413548930072
766,-9.20278465671084
767,-9.381843497793486
768,-9.553321503563495
769,-9.714888408523683
770,-9.864194393791449
771,-9.998920455058629
772,-10.11683515575907
773,-10.215855630701668
774,-10.294110580837343
775,-10.350002587866335
776,-10.382264402110433
777,-10.390014008357825
778,-10.372790659551216
779,-10.330581872553438
780,-10.263833978074308
781,-10.173446081706272
782,-10.060747558359195
783,-9.927460342401323
784,-9.775647514782724
785,-9.607653091385037
786,-9.426033420204865
787,-9.233486053213033
788,-9.032779312568143
789,-8.826685458644103
790,-8.617920035957775
791,-8.409089078689911
792,-8.202646110510152
793,-8.000858640134819
794,-7.805785813114722
795,-7.619263788778436
796,-7.442900438120855
797,-7.278077071161293
798,-7.125956086382126
799,-6.987493206721548
800,-6.863453014683373
801,-6.754426600945365
802,-6.660850275199609
803,-6.583025053551475
804,-6.521132408020103
805,-6.475255058351203
806,-6.445390917966077
807,-6.431465815361917
808,-6.433344876641846
809,-6.450842534680858
810,-6.483728752761453
811,-6.531732807624668
812,-6.594544251620717
813,-6.671812544208916
814,-6.763144185589806
815,-6.868096767314948
816,-6.986171233276874
817,-7.116801752027678
818,-7.25934477852871
819,-7.413066463723299
820,-7.577129050451989
821,-7.750575859145896
822,-7.932315695234917
823,-8.121110001334346
824,-8.315562308155743
825,-8.514106386017064
826,-8.715001545096912
827,-8.916331358453697
828,-9.11600858020418
829,-9.311788290413327
830,-9.501289372278098
831,-9.68202511631187
832,-9.851443454073685
833,-10.006976681560582
834,-10.146099916079468
835,-10.266397293354055
836,-10.365633242149405
837,-10.441824939049743
838,-10.4933127061079
839,-10.518825208324206
840,-10.517529764552274
841,-10.48908148638975
842,-10.433641678448078
843,-10.351884825724166
844,-10.244984647746783
845,-10.114581296737612
846,-9.9627315890924
847,-9.791845190808738
848,-9.604610791176933
849,-9.403915515788439
850,-9.19276397515887
851,-8.974199541299791
852,-8.751230805069204
853,-8.526767976828376
854,-8.30356785873518
855,-8.084192592523765
856,-7.87097837173898
857,-7.6660160142019125
858,-7.471141665511486
859,-7.287936405209323
860,-7.1177332568749305
861,-6.961630023301744
862,-6.820506400172414
863,-6.695043939396756
864,-6.585747671542588
865,-6.4929675563709175
866,-6.416921596135727
867,-6.357714142816158
868,-6.315355762061928
869,-6.289780006508475
870,-6.28085738141235
871,-6.288406821320151
872,-6.312204501783292
873,-6.351989872023662
874,-6.407469342318434
875,-6.478316350856178
876,-6.564170620731686
