t,x(t)
0,-1.6,0.
1,-1.587457646376534,-0.1302800825107355
2,-1.5815925279139567,-0.2544892221043469
3,-1.5820744483839888,-0.3734307460941539
4,-1.5886072234380877,-0.487847130969021
5,-1.6009265850743146,-0.5984264817406719
6,-1.6187980052060504,-0.7058083228523643
7,-1.6420144950100535,-0.8105890479608795
8,-1.6703944918293878,-0.9133267716439383
9,-1.7037798793426884,-1.0145456949703866
10,-1.7420338539837608,-1.1147403231881228
11,-1.785038916574101,-1.214379348558088
12,-1.832694905632371,-1.3139091786717967
13,-1.8849170448711572,-1.4137572446690447
14,-1.9416339866371612,-1.5143351090069144
15,-2.002785832027384,-1.616041399103582
16,-2.068322033863354,-1.7192646524540012
17,-2.138199646153254,-1.8243856190685284
18,-2.2123804244349787,-1.9317804668585934
19,-2.290829111404163,-2.0418225826686007
20,-2.3735105246747294,-2.154885265346725
21,-2.4603870283638094,-2.271343762296316
22,-2.5514155059991954,-2.391577488938709
23,-2.6465432365234705,-2.515972550548252
24,-2.7457058785780224,-2.644922604958554
25,-2.848821165084365,-2.7788320647222036
26,-2.95578474186543,-2.918117161017911
27,-3.066467106614271,-3.0632065176999688
28,-3.1807025233557127,-3.214544489201248
29,-3.298286259027461,-3.372589893396662
30,-3.4189670703863704,-3.537816802234841
31,-3.5424313231839184,-3.7107155629548156
32,-3.668302863510253,-3.8917891332799694
33,-3.7961241673620223,-4.081552363705634
34,-3.925345220513433,-4.280527572119401
35,-4.055308779185008,-4.489238392527382
36,-4.185235142957349,-4.708201403826823
37,-4.314205182751894,-4.9379149683813095
38,-4.441141185757219,-5.178844219488686
39,-4.564783826206214,-5.431399809244216
40,-4.683677615058459,-5.69591387750543
41,-4.796147408874698,-5.972606738439136
42,-4.900282070327829,-6.261547169422678
43,-4.993920105458064,-6.562603512914242
44,-5.074641600341092,-6.875385323617065
45,-5.13976939633,-7.199175174286954
46,-5.18638340853723,-7.532851106706104
47,-5.211352628904264,-7.8748005829035215
48,-5.211390531611302,-8.22283409069028
49,-5.183137497276764,-8.57409092028022
50,-5.123277252314102,-8.924964234565572
51,-5.028687726627395,-9.271040751868908
52,-4.8966277375842076,-9.60707465315918
53,-4.724955199450522,-9.927011314669276
54,-4.512363958578071,-10.224078200974867
55,-4.2586153146822205,-10.490954999605789
56,-3.964752567630472,-10.720024633128219
57,-3.6332613643421725,-10.90371257446616
58,-3.26812615901945,-11.034886914323142
59,-2.8747952201035107,-11.107301127551997
60,-2.4599972711499554,-11.116019812755034
61,-2.0314417001814293,-11.057790131523149
62,-1.5974129801492731,-10.93131248601708
63,-1.1663001902289043,-10.737349098069862
64,-0.7461193859368939,-10.47869201208722
65,-0.3440781866868141,-10.159963447788641
66,0.033765857327808735,-9.787290169109129
67,0.3827259515949224,-9.367897024525247
68,0.6995782366118525,-8.909667720384014
69,0.9825316635265113,-8.420718115673298
70,1.2310984928656337,-7.909021692514455
71,1.4459000658686691,-7.382110719674812
72,1.6284396954095983,-6.846858340718623
73,1.780863721064255,-6.309348021761253
74,1.9057429447443772,-5.774807545068166
75,2.0058776140731713,-5.247609647865159
76,2.0841404375238857,-4.731303769250887
77,2.143354818679113,-4.228688126351327
78,2.186207105062224,-3.7418857976551454
79,2.215188886936769,-3.272434787881849
80,2.23256395469889,-2.821375652523266
81,2.240353872227388,-2.38933387531716
82,2.2403373544010496,-1.9765948811490355
83,2.234059049064777,-1.5831702987276364
84,2.2228445393365677,-1.2088555968908137
85,2.2078203407449895,-0.8532800123869166
86,2.189933495084582,-0.5159468394207605
87,2.1699724409595094,-0.19626758639419875
88,2.148586969429765,0.1064102458239515
89,2.1263068826069977,0.39278070635794915
90,2.1035590459679483,0.6635614189204921
91,2.080682583003887,0.9194793335745453
92,2.0579428778477116,1.1612596712521759
93,2.035542774124027,1.3896172722555062
94,2.0136332773753485,1.6052501194636135
95,1.9923223418511262,1.8088345074640129
96,1.9716825681291572,2.0010217057092947
97,1.9517573393105458,2.1824353038238105
98,1.9325666252344849,2.353669872276728
99,1.91411157199014,2.5152902252107054
100,1.8963783584075393,2.6678311417153875
101,1.8793414427058794,2.8117974751172907
102,1.8629662872881123,2.947664390891958
103,1.8472117281690186,3.075878222135928
104,1.8320319136629895,3.196857494992414
105,1.8173778801335254,3.3109939890412963
106,1.8031988671727355,3.418654096677834
107,1.789443432096944,3.520178435295936
108,1.7760604206270858,3.6158856687600185
109,1.7629995785045762,3.706072486238755
110,1.7502124652285416,3.7910132731500084
111,1.7376524464621284,3.8709655632860382
112,1.725275818808836,3.946165824969413
113,1.7130413876720287,4.016835892013887
114,1.7009112795930024,4.083180546658863
115,1.6888509717670506,4.145390084949187
116,1.6768291113145752,4.203642293376598
117,1.6648183927012654,4.2581009838328345
118,1.6527945685090046,4.308920416685469
119,1.6407374960977892,4.356243160793764
120,1.6286303921852723,4.400203268377022
121,1.6164602534417685,4.44092587706682
122,1.6042173594660272,4.478529201656973
123,1.5918957147932673,4.513124129751649
124,1.5794923671913632,4.544816238357694
125,1.5670078559518892,4.573705407170697
126,1.5544454905722367,4.599887529710881
127,1.5418117582215038,4.62345424192012
128,1.5291155913217203,4.6444943268436925
129,1.5163687216679083,4.663093552518256
130,1.5035849614391055,4.679335781175414
131,1.4907804933110167,4.693302903349983
132,1.4779731899430855,4.705075669061751
133,1.4651828305461898,4.714733701527995
134,1.452430481459114,4.7223560743695945
135,1.439738630627082,4.728021384226043
136,1.4271306493524658,4.7318081055048875
137,1.4146308697873287,4.7337947039486235
138,1.4022640691535202,4.734059780405224
139,1.3900555368448864,4.73268225254134
140,1.3780306746571203,4.729741267252105
141,1.366214872908942,4.7253164602369955
142,1.3546334018876074,4.719487695506001
143,1.3433110103986001,4.712335318368992
144,1.3322721313301789,4.703939852308183
145,1.321540249597491,4.694382129939637
146,1.311138327260009,4.683743069829132
147,1.3010880859865406,4.672103618082249
148,1.291410479601831,4.659544649405371
149,1.2821250823005483,4.6461467488025425
150,1.2732504272499834,4.631990184005721
151,1.2648036627004664,4.617154645202648
152,1.2568005140734468,4.601719082620992
153,1.249255664773573,4.585761821876156
154,1.2421818236477524,4.569359773546974
155,1.2355909842123394,4.552589270507804
156,1.2294929749667232,4.535524661152071
157,1.2238968441896663,4.518239488349202
158,1.2188097857836895,4.500805202372198
159,1.2142378051918743,4.4832917643762835
160,1.2101856300931637,4.4657673989319235
161,1.2066563486244788,4.448297885619917
162,1.2036522844229798,4.430947774626342
163,1.2011739188310662,4.413778387715832
164,1.1992211623637488,4.396849961791667
165,1.1977922831169274,4.380219388463436
166,1.1968848412410704,4.363942002878642
167,1.1964952289695705,4.348070386415186
168,1.196618641539916,4.332654042786658
169,1.1972499795819576,4.317741687858686
170,1.198382648519671,4.303377728587355
171,1.2000094840640505,4.289604776784272
172,1.2021228376929456,4.276463838609732
173,1.2047138085966893,4.263991515291949
174,1.2077732734189852,4.252223572444949
175,1.211291387883433,4.241192923643661
176,1.2152574711416477,4.230929002647339
177,1.219660703707635,4.2214606328279745
178,1.2244894243862143,4.212812802567844
179,1.2297315225490513,4.205008362722684
180,1.2353746646009227,4.198069070544215
181,1.24140570498468,4.192012615408925
182,1.247811304757359,4.18685569192951
183,1.2545777272288479,4.182612932252915
184,1.2616905823389717,4.179295590673569
185,1.2691353808726813,4.176914404420954
186,1.2768970537424,4.175477141092065
187,1.2849600831376338,4.174989329092138
188,1.2933088275842637,4.175455872680298
189,1.3019269057603706,4.1768781515569575
190,1.3107976425619146,4.179256210663302
191,1.319904205406582,4.182589367087428
192,1.329228933070948,4.186873355881719
193,1.3387538921931932,4.192102809358742
194,1.3484609654898172,4.198271600501222
195,1.3583311466667272,4.205370138976072
196,1.368345161387514,4.213387847442284
197,1.3784835197700525,4.222313344866302
198,1.3887257877042867,4.232131855990269
199,1.3990512727677278,4.242827709612188
200,1.4094390346262036,4.254384371020296
201,1.4198671600258455,4.266781931966911
202,1.4303134970626494,4.279999660447586
203,1.4407556198988607,4.294015884391221
204,1.4511701512352546,4.308805542204627
205,1.4615335073428495,4.3243428084771764
206,1.4718218203236457,4.340600825225317
207,1.4820103647985454,4.357549310634931
208,1.4920742549423394,4.375157273581913
209,1.5019883386454402,4.393392587093148
210,1.5117267936255556,4.4122196750873535
211,1.5212636967058677,4.431602310326757
212,1.5305729248085187,4.451503164355488
213,1.5396279673741033,4.471881168793328
214,1.5484022775654047,4.49269448752504
215,1.556869254272754,4.513900840950303
216,1.56500228445212,4.535454336509042
217,1.5727749325117677,4.557307321752877
218,1.5801607593770466,4.579412064620755
219,1.5871336374219913,4.601718497250327
220,1.593668243755135,4.624173691420135
221,1.5997393491685639,4.64672454498049
222,1.6053220163191182,4.66931696691821
223,1.6103930256184986,4.691893783340135
224,1.6149296919380336,4.7143972328303
225,1.618909454066611,4.736769298993729
226,1.6223119292126145,4.758949830311358
227,1.625118473096624,4.780877673812926
228,1.6273104948790078,4.802491643349728
229,1.628871189306834,4.823729669075463
230,1.6297872643697944,4.844529007671595
231,1.6300458247328267,4.864826947201754
232,1.6296348621518542,4.8845606140948545
233,1.62854715127966,4.903667646379101
234,1.6267770419134466,4.922086187890537
235,1.6243191320968322,4.939754383993679
236,1.6211724108552648,4.95661197974629
237,1.617339612215257,4.972600802129841
238,1.6128236253474872,4.987662797252379
239,1.6076303678381165,5.0017418227418995
240,1.6017706856658123,5.014785594045413
241,1.5952559780909104,5.026742384218234
242,1.5881012185878867,5.037563919849776
243,1.5803252077265033,5.047206205646386
244,1.571947406520373,5.055626021720707
245,1.562991725394294,5.062786062977528
246,1.553484511960249,5.068652761167493
247,1.543453188100494,5.073194218471043
248,1.5329295900419546,5.07638656624009
249,1.5219467177096055,5.078208427493586
250,1.5105392615486861,5.0786420872956235
251,1.4987452379504904,5.077678456346933
252,1.4866031289526243,5.075309878607194
253,1.4741533313106883,5.071534973443831
254,1.4614380455363054,5.066359838639854
255,1.4484997262631187,5.059791784783299
256,1.435382211785019,5.051846580313486
257,1.4221298562734408,5.0425451959528145
258,1.4087871867017705,5.031910586208083
259,1.3953989275193048,5.0199749385941725
260,1.382009648839602,5.00677324886057
261,1.3686636523931248,4.9923442428000095
262,1.355404307809481,4.976733849003997
263,1.3422746059877937,4.959989771261527
264,1.3293159739587372,4.942165778823413
265,1.3165690360017315,4.923318091715705
266,1.3040727794247182,4.903506917936256
267,1.2918644921787117,4.882795891103347
268,1.2799802381228058,4.861250628304935
269,1.268453381135873,4.838940375180749
270,1.2573163738116306,4.81593536339081
271,1.2465985670859587,4.792308527257834
272,1.2363280301338793,4.768133665015859
273,1.2265302286883795,4.743485847335493
274,1.2172283836219673,4.718440902166761
275,1.2084440488633867,4.693074935384151
276,1.2001956344132607,4.667464144304773
277,1.1925005144408425,4.6416845979891175
278,1.1853727591333127,4.615811513200653
279,1.1788252382987234,4.58991962674159
280,1.1728682505017767,4.5640822792833555
281,1.1675101670982118,4.53837151390722
282,1.1627578224418864,4.512858089971698
283,1.1586155046977202,4.4876102957517965
284,1.1550866517654077,4.462695452368413
285,1.1521721475922508,4.438177589869451
286,1.1498720991797353,4.4141196326408645
287,1.148184668146931,4.390581290609718
288,1.1471063581570788,4.367619181643523
289,1.1466334351745655,4.345289471624716
290,1.1467601361434103,4.323643850147727
291,1.1474794798068346,4.302730894861253
292,1.1487843152625297,4.282598733777102
293,1.150665895999546,4.263290800648158
294,1.1531145459664565,4.244847404168876
295,1.1561204567701338,4.227308388853693
296,1.159672593671999,4.210708893677737
297,1.1637592227827478,4.195081038073557
298,1.1683685085476219,4.1804564802273445
299,1.1734876761126627,4.166862318532982
300,1.1791034182306934,4.154322815868417
301,1.1852023483852783,4.142861788641249
302,1.1917703363081917,4.132498736341824
303,1.1987928231204814,4.123250546557505
304,1.2062551844143274,4.115133682842574
305,1.2141421582133856,4.108160584476351
306,1.2224381009839467,4.102341311202718
307,1.231127308747048,4.097685523820726
308,1.240193463793419,4.094199154695295
309,1.2496198662545999,4.091885972596408
310,1.2593897555678002,4.090749382591402
311,1.2694857109030657,4.090789320140992
312,1.279889879082175,4.0920036796946215
313,1.290584349538225,4.09439007160029
314,1.3015504814567473,4.097942952375825
315,1.3127690860589543,4.102654669010361
316,1.3242209170722663,4.108517344738789
317,1.3358859223540152,4.11552025499167
318,1.347743353697874,4.123650443147135
319,1.3597724014790717,4.132894760839694
320,1.3719513820765874,4.143237442167861
321,1.3842577533780542,4.154660317073921
322,1.3966689048322685,4.167145032978425
323,1.4091613118114221,4.180670784652289
324,1.4217104366833504,4.195214131301482
325,1.4342916635582674,4.210751437333923
326,1.4468794669416856,4.227256732167756
327,1.4594471918661618,4.244701118578801
328,1.4719680938603315,4.263055470518208
329,1.4844145783703449,4.2822884194524455
330,1.4967578800826844,4.302365331137146
331,1.508969135345434,4.323251285823417
332,1.5210187490782812,4.344909212371645
333,1.5328760315623642,4.36729841418851
334,1.544510198991378,4.390377849371006
335,1.5558899472869379,4.414104667044718
336,1.5669830177829276,4.4384314495648
337,1.5777570496483195,4.463310115035365
338,1.5881795701885404,4.488692165948761
339,1.5982175435267632,4.5145245520091954
340,1.607837885585017,4.540751413406063
341,1.6170075207439787,4.567316846330744
342,1.6256933001410028,4.594163118961583
343,1.6338627036165256,4.621227488130761
344,1.6414834755130077,4.6484463602098876
345,1.648523353411071,4.675755914107803
346,1.654951184087869,4.703088648467739
347,1.6607374583933527,4.730374104637724
348,1.66585276923025,4.7575417423796
349,1.670268215873018,4.784519956293849
350,1.6739583877947615,4.811233544017032
351,1.6768991639746282,4.83760659989288
352,1.679066543191675,4.863563116907199
353,1.6804397130613016,4.889025402507701
354,1.681001182639,4.913914843981871
355,1.680733968034079,4.9381527839302235
356,1.679625399640316,4.961660316932349
357,1.6776655986051459,4.9843587853852
358,1.6748460570242798,5.006169698068023
359,1.6711641124641388,5.027016165770194
360,1.666618737663152,5.046821958479795
361,1.6612121461881362,5.065512262392123
362,1.6549524313252366,5.083015640601113
363,1.647848639831594,5.099261289038101
364,1.6399152330097155,5.1141824770772
365,1.631171068949103,5.127716394771774
366,1.6216363178358115,5.139801453781737
367,1.6113378344103553,5.150383390047056
368,1.6003048254086993,5.159410951793372
369,1.5885691520404641,5.16683637520811
370,1.5761686846248384,5.1726211697720075
371,1.5631422927176313,5.176728602031948
372,1.5495327918929664,5.179129342694903
373,1.535386864530069,5.179802600730047
374,1.5207520028485082,5.178729627425369
375,1.505679568970195,5.175902390327872
376,1.4902223301544781,5.171317600746681
377,1.474434980514841,5.164979842658078
378,1.4583736751940601,5.15690087832316
379,1.4420954452971946,5.1470984213817195
380,1.4256582559588753,5.135599220541145
381,1.409120272823688,5.122434243659498
382,1.3925396524173144,5.107644318320996
383,1.3759743611505464,5.091273705280637
384,1.3594813465304165,5.0733758059112954
385,1.343116920022647,5.054007782503377
386,1.3269356727001103,5.033233962619141
387,1.310990806424401,5.011123275204929
388,1.2953336107387416,4.987749461398674
389,1.2800129342190127,4.963191402152564
390,1.265075908945216,4.9375308191471
391,1.2505661554688121,4.9108542967935875
392,1.2365257766626485,4.883250075218471
393,1.2229928303258102,4.854810022985034
394,1.2100036115721615,4.825627201499703
395,1.197590309530501,4.795796733343857
396,1.1857831656115585,4.76541440830709
397,1.1746083719676979,4.734576711746257
398,1.1640900149863083,4.703380208875137
399,1.1542483914851274,4.67192096516912
400,1.1451015477699045,4.64029448152814
401,1.1366641440965841,4.608594812334751
402,1.128948485369965,4.576914739114934
403,1.1219639762958875,4.545344927190901
404,1.115717624546501,4.513974017624162
405,1.1102140472106024,4.482888134107576
406,1.105455500655947,4.4521706213547345
407,1.1014423372384665,4.421902135580361
408,1.098172686279852,4.392159891158782
409,1.095643307991973,4.363018650176045
410,1.0938483799995558,4.334547855182872
411,1.092781674497452,4.306816054060587
412,1.0924350778005822,4.27988706613345
413,1.092798804279779,4.25381985171697
414,1.0938628386189901,4.228672627012275
415,1.095615522110018,4.204497754570488
416,1.0980443124603387,4.181343922342555
417,1.101136420624496,4.15925871462379
418,1.104877807651063,4.138283351305493
419,1.1092540410529645,4.118456661870113
420,1.1142504123837194,4.099815715934878
421,1.1198513799516734,4.082391455406918
422,1.1260412495520782,4.066213471968813
423,1.1328040498929206,4.05130881102925
424,1.1401232972093585,4.037699264773285
425,1.1479824465305242,4.0254058913010535
426,1.156364685040439,4.014446531945917
427,1.1652528664602535,4.004834951124058
428,1.1746298076080557,3.99658441940127
429,1.1844780244230144,3.989704563347624
430,1.194779767637256,3.984202124408968
431,1.2055172440358606,3.980083332834777
432,1.2166722408484765,3.9773506002560763
433,1.2282262798435775,3.9760043500408204
434,1.2401608160853037,3.976044473995418
435,1.2524567011080256,3.9774672002342344
436,1.2650944607128258,3.980267170632821
437,1.2780545113332615,3.984438470492074
438,1.2913164204398644,3.9899717424606527
439,1.3048593596944695,3.996856301942529
440,1.3186623259973196,4.005080859839509
441,1.332703174993115,4.014630791827594
442,1.3469593079944513,4.025490324682851
443,1.3614078622399368,4.037643003283909
444,1.3760245269057672,4.05106901535675
445,1.39078450153753,4.06574751584386
446,1.405662610539,4.081656858864101
447,1.4206319486540677,4.098771890482543
448,1.4356651155351823,4.117066497378127
449,1.450734209500237,4.13651359168441
450,1.465809387007056,4.157082311976628
451,1.4808603355010992,4.178740885943211
452,1.49585611448361,4.2014563274394705
453,1.510763746058797,4.225191527991918
454,1.525549841064146,4.249908512568944
455,1.5401804019784617,4.275568093376655
456,1.5546192000086834,4.302125908071441
457,1.5688295226567426,4.329536371514839
458,1.5827745299016196,4.3577536510133905
459,1.5964156491456205,4.386727233920241
460,1.6097130868050233,4.416402448257325
461,1.6226270261332596,4.4467244785123565
462,1.6351171186848366,4.477636822048117
463,1.6471417341132364,4.509076273774218
464,1.658659112575227,4.5409779677964455
465,1.6696274332160168,4.573276863750792
466,1.680004502531082,4.60590316051759
467,1.6897484482314395,4.63878183943454
468,1.6988174768496063,4.671837615771916
469,1.7071698219116014,4.70499384128231
470,1.7147653476766795,4.738167234731778
471,1.7215649133577542,4.77127250881835
472,1.7275293707189836,4.804224274282758
473,1.732621329638534,4.836933502908746
474,1.7368072519984714,4.8693067397167775
475,1.740054044088287,4.901250275332383
476,1.7423291721189864,4.932669618868965
477,1.7436060410261043,4.963466569552496
478,1.7438613913381482,4.993542039386184
479,1.7430720024116726,5.022796905056508
480,1.7412184474142127,5.051130947025157
481,1.7382899812585195,5.0784441148759205
482,1.7342770337720048,5.104636688609346
483,1.7291708617725174,5.129608855326492
484,1.7229723890139892,5.153263368760703
485,1.7156887454850231,5.175506069617899
486,1.7073272008940943,5.196242913150211
487,1.6979006635043417,5.215382988271106
488,1.687431411559825,5.23284187965783
