t,x(t)
0,1.
1,0.9801621359526919
2,0.9606372542858705
3,0.9414089421356295
4,0.9224614107987735
5,0.9037794859167175
6,0.8853485878644809
7,0.867154745195787
8,0.8491845269880081
9,0.8314251033930848
10,0.8138641147715245
11,0.7964898153157162
12,0.7792908823015439
13,0.7622565559359215
14,0.7453765181378303
15,0.7286409169304421
16,0.7120403820162301
17,0.6955659197955008
18,0.6792090287535039
19,0.6629615450636337
20,0.6468157470781599
21,0.6307642692073075
22,0.6148001299290387
23,0.5989166621074695
24,0.5831075933052422
25,0.5673669038292031
26,0.551688988235708
27,0.536068435705978
28,0.5205002413826366
29,0.5049795669107232
30,0.4895019571622674
31,0.4740631115685735
32,0.45865907614418333
33,0.44328603527432975
34,0.42794050255787774
35,0.4126192335024321
36,0.3973190172107956
37,0.38203700281651354
38,0.36677057825136794
39,0.35151714868992245
40,0.3362743940312437
41,0.3210402523099545
42,0.3058126760894792
43,0.290589817399141
44,0.275370093408026
45,0.26015194048162177
46,0.2449339319247989
47,0.22971490094231264
48,0.21449370944920337
49,0.1992693075168073
50,0.1840408886417183
51,0.16880768737933574
52,0.15356898764973392
53,0.13832429612938504
54,0.12307318226258376
55,0.1078152301192869
56,0.09255019492012109
57,0.07727794237440669
58,0.061998341801361524
59,0.046711359843275374
60,0.031417107563098845
61,0.016115707671402073
62,0.0008073245282686492
63,-0.014507731074343746
64,-0.02982911641058696
65,-0.04515647630447761
66,-0.060489340844089974
67,-0.07582717860875333
68,-0.09116945559617327
69,-0.10651556802107368
70,-0.1218648268452292
71,-0.13721653787795324
72,-0.15256997529093372
73,-0.16792432224473158
74,-0.18327874577988748
75,-0.19863240821007208
76,-0.21398439500814523
77,-0.2293337382358336
78,-0.2446794691637522
79,-0.2600206174589934
80,-0.27535615776217376
81,-0.29068499861303243
82,-0.30600604477892607
83,-0.3213182010272116
84,-0.3366203533246628
85,-0.35191131998948433
86,-0.3671899045930021
87,-0.38245491070748033
88,-0.3977051383387719
89,-0.41293934209729094
90,-0.4281562460021131
91,-0.4433545735572689
92,-0.45853304811108675
93,-0.4736903729433066
94,-0.4888252132530775
95,-0.5039362301500778
96,-0.5190220847439858
97,-0.5340814329238817
98,-0.5491128993088547
99,-0.564115097333506
100,-0.5790866404389556
101,-0.594026141419385
102,-0.6089321963309928
103,-0.6238033841041707
104,-0.6386382829692625
105,-0.6534354711560724
106,-0.6681935207199614
107,-0.682910988082417
108,-0.6975864278232407
109,-0.7122183945191674
110,-0.7268054388942512
111,-0.741346101959001
112,-0.7558389233841829
113,-0.7702824428328229
114,-0.7846751973077168
115,-0.7990157185626722
116,-0.8133025379053924
117,-0.8275341866304803
118,-0.8417091945800089
119,-0.8558260901593638
120,-0.8698834019737415
121,-0.883879658612592
122,-0.8978133885583
123,-0.9116831221522096
124,-0.9254873903541119
125,-0.9392247241108808
126,-0.9528936557110214
127,-0.9664927221623958
128,-0.980020461359762
129,-0.99347541119633
130,-1.0068561124299726
131,-1.0201611129678805
132,-1.0333889617556302
133,-1.0465382077624528
134,-1.0596074044625226
135,-1.0725951145489994
136,-1.085499901812741
137,-1.0983203301106736
138,-1.1110549695303122
139,-1.1237024011207848
140,-1.1362612070266673
141,-1.1487299695235005
142,-1.161107278928565
143,-1.1733917379561845
144,-1.1855819503671654
145,-1.1976765199248502
146,-1.2096740593008326
147,-1.2215731974552995
148,-1.233372564881304
149,-1.2450707920719006
150,-1.2566665123245946
151,-1.2681583794647622
152,-1.2795450563567172
153,-1.2908252059010454
154,-1.301997491070904
155,-1.3130605858386257
156,-1.3240131864618985
157,-1.3348539918681481
158,-1.3455817009848006
159,-1.3561950146834696
160,-1.3666926565341762
161,-1.3770733647014497
162,-1.3873358775855864
163,-1.3974789335922808
164,-1.4075012805953449
165,-1.417401694622397
166,-1.4271789568813382
167,-1.4368318485800695
168,-1.4463591520736179
169,-1.4557596726682969
170,-1.4650322367767994
171,-1.4741756715911758
172,-1.483188804303476
173,-1.4920704681196342
174,-1.5008195301887086
175,-1.509434868833703
176,-1.5179153623781652
177,-1.5262598891452206
178,-1.5344673373484354
179,-1.542536632863264
180,-1.5504667104890424
181,-1.558256505025108
182,-1.565904951273823
183,-1.57341099637077
184,-1.5807736269991306
185,-1.5879918377266606
186,-1.595064623121117
187,-1.6019909777724997
188,-1.6087699113567302
189,-1.6154004744918102
190,-1.6218817246563513
191,-1.6282127193289646
192,-1.634392516059514
193,-1.6404201905260287
194,-1.6462948602442018
195,-1.652015648599597
196,-1.6575816789777784
197,-1.662992074930079
198,-1.6682459814334367
199,-1.6733425857009219
200,-1.678281079877036
201,-1.683060656106281
202,-1.6876805068452692
203,-1.6921398493780953
204,-1.69643794332262
205,-1.700574052418403
206,-1.7045474404050036
207,-1.7083573715007836
208,-1.7120031377042402
209,-1.7154840734649415
210,-1.7187995168084096
211,-1.7219488057601653
212,-1.7249312790250528
213,-1.7277463059091718
214,-1.7303932980267365
215,-1.7328716700877205
216,-1.7351808368020976
217,-1.7373202138109372
218,-1.7392892502064257
219,-1.7410874369671119
220,-1.7427142677151821
221,-1.744169236072822
222,-1.7454518369026064
223,-1.7465616013696572
224,-1.747498101836844
225,-1.7482609128907918
226,-1.7488496091181251
227,-1.7492637667185174
228,-1.7495030010165493
229,-1.7495669675945567
230,-1.7494553238744948
231,-1.7491677272783188
232,-1.7487038300133055
233,-1.7480633055079495
234,-1.7472459134373186
235,-1.7462514213754778
236,-1.7450795968964916
237,-1.743730207574425
238,-1.742203020983343
239,-1.7404978046973099
240,-1.738614331108287
241,-1.7365524467659639
242,-1.7343120561924545
243,-1.7318930654408955
244,-1.7292953805644247
245,-1.726518907616179
246,-1.723563552649296
247,-1.7204292217169128
248,-1.7171158281811785
249,-1.7136233673092207
250,-1.709951885664884
251,-1.7061014305929456
252,-1.702072049438183
253,-1.6978637895453734
254,-1.6934766982592946
255,-1.688910822924724
256,-1.6841662214141735
257,-1.6792430399552678
258,-1.6741414688383565
259,-1.6688616986736347
260,-1.6634039200712976
261,-1.6577683236415401
262,-1.651955099994557
263,-1.645964439740544
264,-1.6397965480114305
265,-1.6334517230143735
266,-1.626930299638008
267,-1.6202326128582496
268,-1.6133589976510132
269,-1.6063097889922144
270,-1.5990853218577679
271,-1.5916859312235896
272,-1.5841119713864822
273,-1.5763638923373025
274,-1.568442173615238
275,-1.5603472947675792
276,-1.5520797353416154
277,-1.5436399748846372
278,-1.5350284929439337
279,-1.5262457690536797
280,-1.5172922774012303
281,-1.5081686049830378
282,-1.498875396719716
283,-1.489413297531878
284,-1.4797829523401387
285,-1.4699850060651107
286,-1.4600201036274092
287,-1.449888889947647
288,-1.4395920099464385
289,-1.4291301085443968
290,-1.4185038427746695
291,-1.4077139808877221
292,-1.396761350864694
293,-1.385646781253779
294,-1.3743711006031725
295,-1.3629351374610679
296,-1.351339720375661
297,-1.3395856778951456
298,-1.327673838567717
299,-1.3156050309415688
300,-1.3033800862683655
301,-1.2909999161321135
302,-1.278465523401005
303,-1.265777915827333
304,-1.252938101163393
305,-1.2399470871614775
306,-1.2268058815738818
307,-1.2135154921528988
308,-1.2000769266508235
309,-1.1864911928199495
310,-1.1727592985025355
311,-1.1588822950769606
312,-1.1448613450770435
313,-1.1306976283464294
314,-1.116392324728761
315,-1.101946614067684
316,-1.0873616762068408
317,-1.0726386909898766
318,-1.0577788382604345
319,-1.0427832978621596
320,-1.0276532496386948
321,-1.0123898906303683
322,-0.9969945238172222
323,-0.9814684919853244
324,-0.965813137969307
325,-0.9500298046038052
326,-0.9341198347234508
327,-0.9180845711628791
328,-0.901925356756722
329,-0.8856435343396148
330,-0.8692404467461895
331,-0.8527174414290866
332,-0.8360759454079286
333,-0.8193174516159126
334,-0.8024434548690541
335,-0.7854554499833685
336,-0.7683549317748736
337,-0.7511433950595842
338,-0.7338223346535181
339,-0.7163932453726899
340,-0.6988576220331176
341,-0.6812169599136318
342,-0.6634728013455009
343,-0.6456267721001285
344,-0.6276805061429493
345,-0.6096356374393942
346,-0.5914937999548977
347,-0.5732566276548912
348,-0.5549257545048086
349,-0.5365028144700816
350,-0.5179894415161445
351,-0.4993872696084283
352,-0.4806979558286556
353,-0.4619232408617806
354,-0.44306488122071797
355,-0.42412463336891565
356,-0.40510425376982495
357,-0.3860054988868939
358,-0.36683012518357383
359,-0.34757988912331356
360,-0.32825654716956193
361,-0.30886185578577025
362,-0.2893975929804012
363,-0.2698656071616579
364,-0.25026775981101124
365,-0.23060591240781317
366,-0.21088192643141224
367,-0.1910976633611605
368,-0.17125498467640643
369,-0.15135575185650207
370,-0.13140182638079592
371,-0.11139506973997416
372,-0.0913373663495305
373,-0.07123065855283998
374,-0.05107689636398928
375,-0.030878029797068482
376,-0.010636008866164143
377,0.00964721641463355
378,0.029969696031238093
379,0.05032947996955928
380,0.0707246182155106
381,0.09115316067353704
382,0.11161313412668292
383,0.13210252127917782
384,0.15261930131517268
385,0.17316145341881833
386,0.19372695677426302
387,0.2143137905656585
388,0.2349199339771529
389,0.2555433661928981
390,0.2761820663970422
391,0.2968340135496298
392,0.3174971648244581
393,0.3381694479041425
394,0.3588487899934901
395,0.37953311829731184
396,0.400220360020415
397,0.4209084423676105
398,0.44159529254370555
399,0.46227883775351114
400,0.48295700520183443
401,0.5036277216659356
402,0.5242888953076541
403,0.5449384195058296
404,0.5655741892260174
405,0.5861940994337718
406,0.6067960450946482
407,0.6273779211741971
408,0.6479376226379742
409,0.6684730444515332
410,0.6889820815804283
411,0.7094626283356504
412,0.7299125656463004
413,0.75032977393038
414,0.7707121364337975
415,0.7910575364024628
416,0.8113638570822803
417,0.8316289817191602
418,0.8518507935590104
419,0.872027175847741
420,0.8921560118312565
421,0.9122351840176584
422,0.9322625698682407
423,0.9522360584377525
424,0.9721535418064914
425,0.9920129120547604
426,1.011812061262861
427,1.0315488815110956
428,1.0512212648797625
429,1.0708271034491645
430,1.0903642892996028
431,1.1098307128558877
432,1.1292242806514223
433,1.1485429130685418
434,1.1677845305689074
435,1.186947053614182
436,1.206028402666023
437,1.2250264981860934
438,1.2439392606360542
439,1.2627646104775665
440,1.281500467639038
441,1.3001447645726283
442,1.3186954661902135
443,1.3371505409716933
444,1.3555079573969697
445,1.3737656839459393
446,1.3919216890985042
447,1.4099739413345644
448,1.4279204091340216
449,1.4457590609767725
450,1.4634878695793019
451,1.48110485178434
452,1.4986080436971065
453,1.515995481431393
454,1.5332652011009948
455,1.5504152388197063
456,1.5674436307013229
457,1.5843484128596361
458,1.6011276214084411
459,1.6177792927207444
460,1.634301497126603
461,1.650692354436059
462,1.66694998782296
463,1.6830725204611539
464,1.6990580755244866
465,1.7149047761868068
466,1.7306107456219584
467,1.7461741070037897
468,1.761592983498924
469,1.7768655114638443
470,1.791989898724154
471,1.8069643745715922
472,1.8217871682978966
473,1.8364565091948057
474,1.8509706265540553
475,1.865327749667384
476,1.8795261078265293
477,1.8935639303232306
478,1.9074394484197903
479,1.921150951708321
480,1.9346967913670723
481,1.9480753212697473
482,1.9612848952900452
483,1.9743238673016692
484,1.987190591178321
485,1.9998834207937035
486,2.012400710021516
487,2.0247408126997755
488,2.0369021082399548
489,2.048883071555649
490,2.060682198803304
491,2.072297986139362
492,2.083728929720269
493,2.0949735257024695
494,2.1060302702424094
495,2.1168976594965305
496,2.127574189621279
497,2.1380583616874134
498,2.1483487607758893
499,2.1584440401899765
500,2.168342855085418
501,2.178043860617955
502,2.1875457119433293
503,2.196847064217281
504,2.2059465725955523
505,2.2148428922338845
506,2.223534678301154
507,2.232020627030346
508,2.240299548844416
509,2.248370273414224
510,2.2562316304106336
511,2.263882449504505
512,2.2713215603666996
513,2.27854779266808
514,2.285559976079508
515,2.2923569402718456
516,2.2989375366682707
517,2.3053007380703208
518,2.3114455454919933
519,2.3173709588295615
520,2.323075977979296
521,2.3285596028374695
522,2.3338208333003547
523,2.338858669263129
524,2.343672137827198
525,2.3482603739679173
526,2.352622539243222
527,2.3567577952110446
528,2.360665303429319
529,2.3643442254559783
530,2.3677937228489565
531,2.371012958075325
532,2.3740011546980404
533,2.3767576344747567
534,2.3792817279969936
535,2.3815727658562724
536,2.3836300786441127
537,2.385452996952035
538,2.3870408513715606
539,2.3883929800181565
540,2.3895088190356946
541,2.3903878730752384
542,2.3910296481823954
543,2.391433650402773
544,2.3915993857819786
545,2.3915263603656203
546,2.3912140801993047
547,2.390662077355358
548,2.3898700040446057
549,2.388837547061909
550,2.3875643932046584
551,2.3860502292702455
552,2.3842947420560603
553,2.382297618359495
554,2.3800585455733083
555,2.3775772716383297
556,2.3748536562296527
557,2.3718875710680036
558,2.368678887874107
559,2.3652274783686895
560,2.3615332142724763
561,2.3575959673061937
562,2.3534156154462167
563,2.348992136254509
564,2.344325587109444
565,2.339416027631679
566,2.334263517441871
567,2.3288681161606757
568,2.3232298834087506
569,2.317348878806751
570,2.311225184725233
571,2.30485900827731
572,2.2982505990884254
573,2.291400206819389
574,2.2843080811310124
575,2.276974471684105
576,2.269399628139478
577,2.2615838003661186
578,2.253527290633642
579,2.24523052247144
580,2.2366939365117187
581,2.2279179733866825
582,2.2189030737285393
583,2.209649678169494
584,2.200158227341753
585,2.190429165243768
586,2.180463023888184
587,2.170260429613627
588,2.1598220133891295
589,2.1491484061837203
590,2.1382402389664295
591,2.1270981427062896
592,2.11572274837233
593,2.1041147007156553
594,2.0922747606134697
595,2.080203747133194
596,2.0679024797764143
597,2.055371778044719
598,2.0426124614396945
599,2.029625349462932
600,2.016411261618703
601,2.0029710528123856
602,1.9893057013157491
603,1.9754162122342984
604,1.9613035906735352
605,1.9469688417389621
606,1.9324129705360806
607,1.917636982170396
608,1.9026418828551004
609,1.8874287459659727
610,1.871998749225725
611,1.8563530793477994
612,1.8404929230456337
613,1.8244194670326674
614,1.8081338980223387
615,1.7916374027280895
616,1.7749311748254095
617,1.7580165049806533
618,1.740894754891889
619,1.7235672878774517
620,1.706035467255682
621,1.6883006563449148
622,1.6703642184634875
623,1.6522275169297351
624,1.6338919361352613
625,1.615358972837438
626,1.596630160985422
627,1.5777070345489177
628,1.558591127497634
629,1.5392839738012751
630,1.5197871074295466
631,1.500102062537331
632,1.4802304187155977
633,1.460173859364315
634,1.4399340822511701
635,1.4195127851438483
636,1.3989116658100398
637,1.37813242201743
638,1.3571767515337063
639,1.3360463549568866
640,1.3147430056202896
641,1.2932685537249147
642,1.271624853122128
643,1.249813757663296
644,1.2278371211997832
645,1.2056967975829598
646,1.1833946406641902
647,1.1609325153056786
648,1.1383123777014545
649,1.1155362289426065
650,1.0926060704153504
651,1.0695239035059032
652,1.0462917296004808
653,1.0229115500853045
654,0.9993853663475314
655,0.9757152066747237
656,0.9519031912432333
657,0.9279514596060199
658,0.9038621513160364
659,0.8796374059262382
660,0.8552793629895781
661,0.8307901620590158
662,0.8061719435164144
663,0.7814268960183768
664,0.7565572811511987
665,0.7315653664532424
666,0.7064534194628637
667,0.6812237077184202
668,0.6558784987582701
669,0.6304200601207687
670,0.6048506664220712
671,0.5791726625590444
672,0.5533884277139076
673,0.5275003406879482
674,0.5015107802824603
675,0.4754221252987317
676,0.4492367545380518
677,0.42295705250651416
678,0.39658546071636813
679,0.3701244530961908
680,0.3435765039226345
681,0.31694408747234926
682,0.2902296780219921
683,0.2634357498482131
684,0.2365647844965214
685,0.20961931756289146
686,0.1826019086571721
687,0.15551511747843605
688,0.12836150372575844
689,0.10114362709821197
690,0.0738640472948766
691,0.04652533287671477
692,0.019130101682737308
693,-0.008319011781773744
694,-0.03581937301346369
695,-0.06336834750897051
696,-0.09096330076493951
697,-0.11860159827801359
698,-0.1462805952337212
699,-0.17399760408934364
700,-0.20174992665904867
701,-0.22953486476472618
702,-0.25734972022826863
703,-0.285191794871561
704,-0.313058390516173
705,-0.3409467976196173
706,-0.36885427205896715
707,-0.39677806361526907
708,-0.4247154220695773
709,-0.45266359720294336
710,-0.48061983879642134
711,-0.5085813965965501
712,-0.5365455081633248
713,-0.5645093862051738
714,-0.5924702410609799
715,-0.6204252830696184
716,-0.6483717225699722
717,-0.6763067699009216
718,-0.7042276348025309
719,-0.7321315129891094
720,-0.7600155879876799
721,-0.7878770431770966
722,-0.8157130619362116
723,-0.8435208276438791
724,-0.8712975236789462
725,-0.8990403315836608
726,-0.9267464219256356
727,-0.9544129631150651
728,-0.9820371237471096
729,-1.0096160724169374
730,-1.0371469777197138
731,-1.064627008250607
732,-1.0920533299257547
733,-1.119423106632861
734,-1.1467335046327412
735,-1.1739816901921953
736,-1.2011648295780168
737,-1.2282800890570058
738,-1.2553246347689946
739,-1.282295632536448
740,-1.3091902566624756
741,-1.336005683777521
742,-1.3627390905120258
743,-1.3893876534964316
744,-1.4159485493611816
745,-1.4424189545367319
746,-1.4687960535120193
747,-1.4950770450850024
748,-1.5212591291077506
749,-1.5473395054323262
750,-1.5733153739107988
751,-1.5991839343952348
752,-1.624942383622442
753,-1.6505879381281972
754,-1.6761178395499405
755,-1.7015293299679801
756,-1.7268196514626262
757,-1.751986046114182
758,-1.7770257560029579
759,-1.801936023209262
760,-1.8267140896030944
761,-1.8513572116914072
762,-1.8758626912972918
763,-1.9002278374763286
764,-1.9244499592840998
765,-1.9485263657761815
766,-1.9724543660081562
767,-1.996231269035604
768,-2.0198543839141054
769,-2.0433210225190477
770,-2.0666285456298112
771,-2.0897743495409533
772,-2.112755831149412
773,-2.135570387352126
774,-2.158215415046028
775,-2.1806883111280584
776,-2.202986472495153
777,-2.2251072959454468
778,-2.247048202643884
779,-2.2688066857897233
780,-2.290380250760579
781,-2.3117664029340657
782,-2.332962647687793
783,-2.3539664903993764
784,-2.374775436446429
785,-2.395386991206566
786,-2.4157986643015312
787,-2.436008035192949
788,-2.4560127367715596
789,-2.475810403115976
790,-2.495398668304807
791,-2.5147751664166655
792,-2.5339375315301638
793,-2.5528833977239147
794,-2.5716103990240495
795,-2.590116200589848
796,-2.6083985662426152
797,-2.626455278394949
798,-2.6442841194594475
799,-2.6618828718487055
800,-2.679249317975321
801,-2.6963812402518923
802,-2.713276421091016
803,-2.729932647689172
804,-2.7463477943668715
805,-2.7625198086260156
806,-2.778446640090625
807,-2.794126238384718
808,-2.809556553132313
809,-2.8247355339574276
810,-2.8396611304840804
811,-2.854331292307542
812,-2.868744004027415
813,-2.882897373969872
814,-2.8967895369669394
815,-2.910418627850643
816,-2.923782781453007
817,-2.9368801326060554
818,-2.9497088161418126
819,-2.9622669668923036
820,-2.974552724366285
821,-2.9865643281741603
822,-2.9983001118061656
823,-3.009758412244779
824,-3.020937566472475
825,-3.0318359114717297
826,-3.0424517842250176
827,-3.052783521714815
828,-3.0628294608346867
829,-3.072587945514514
830,-3.082057484382433
831,-3.0912366518243712
832,-3.1001240222262565
833,-3.108718169974015
834,-3.117017669453573
835,-3.125021095050859
836,-3.132727021151798
837,-3.140134022142319
838,-3.1472406723975825
839,-3.1540455928954425
840,-3.160547588254626
841,-3.1667455075451008
842,-3.172638199836833
843,-3.1782245141997896
844,-3.1835032997039368
845,-3.188473405419242
846,-3.1931336804156722
847,-3.1974829737631927
848,-3.201520134674664
849,-3.2052441125394147
850,-3.2086540188490047
851,-3.211748961196586
852,-3.2145280471753113
853,-3.2169903843783323
854,-3.2191350803988015
855,-3.22096124282987
856,-3.22246798033772
857,-3.223654483803072
