t,x(t),y(t)
0,-1.6,0.
1,-1.5958038343451069,0.000021066316679049647
2,-1.5917775195765766,0.00008274207985156154
3,-1.5879082096389583,0.00018285595112909684
4,-1.5841837735717086,0.00031926653867089057
5,-1.5805930207965775,0.0004898843498214391
6,-1.5771254602506823,0.0006926571661445361
7,-1.5737713307014238,0.0009255716128671398
8,-1.5705216183993016,0.0011866533733639233
9,-1.5673679399658613,0.0014739608098589614
10,-1.564302503905424,0.0017855829592809938
11,-1.561318289500097,0.002119648469772478
12,-1.5584086783777622,0.0024743067191221454
13,-1.5555676278027721,0.00284773777605684
14,-1.5527897230161818,0.0032381540601915
15,-1.5500697864177095,0.0036437814837800508
16,-1.5474034358762998,0.00406289131813606
17,-1.5447864967071883,0.004493766395747199
18,-1.5422152882418152,0.00493472022276167
19,-1.5396866118887986,0.005384096797402364
20,-1.5371974513360982,0.005840252691089703
21,-1.5347453834663203,0.006301587393580291
22,-1.53232814160205,0.00676651229297337
23,-1.529943860602547,0.00723347250536356
24,-1.5275910207613288,0.007700943997109331
25,-1.5252682305252707,0.008167414597466342
26,-1.5229746039627892,0.008631426768483013
27,-1.5207093863251993,0.009091538596414475
28,-1.5184719315417645,0.009546320675812625
29,-1.5162620664215667,0.00999440916635767
30,-1.5140797449885746,0.010434461517670303
31,-1.5119249802959744,0.010865144053245462
32,-1.509798152526241,0.011285191083279975
33,-1.5076997818730624,0.01169336809813582
34,-1.5056304213029685,0.012088447253838487
35,-1.5035908998441847,0.012469270776001639
36,-1.5015821838757113,0.012834723360998588
37,-1.4996052568819465,0.013183694611352067
38,-1.497661296849951,0.013515143636142625
39,-1.4957516072992643,0.013828085470767634
40,-1.493877500637165,0.014121539252015505
41,-1.4920404127415734,0.014394590084853779
42,-1.490241880942749,0.014646393550969194
43,-1.4884834478513995,0.014876109909680075
44,-1.4867667254189114,0.015082959423891752
45,-1.4850933932789274,0.015266247495868366
46,-1.4834651338982203,0.015425286451202919
47,-1.481883658840236,0.01555944049367649
48,-1.480350705567254,0.015668172395748713
49,-1.4788680108156809,0.015750956036124832
50,-1.4774373146548283,0.01580730780971384
51,-1.4760603370162086,0.015836853472352294
52,-1.4747387899281696,0.01583923611234811
53,-1.4734743746483727,0.015814131723282887
54,-1.4722687269713455,0.01576133247258301
55,-1.4711234623596592,0.01568065614520022
56,-1.4700401805974976,0.015571943820579345
57,-1.4690203744239874,0.015435155593937159
58,-1.468065494994511,0.01527028937858219
59,-1.4671769816638696,0.015077355523271453
60,-1.4663561408368122,0.014856475766912432
61,-1.465604197242754,0.014607830613431187
62,-1.4649223689129096,0.014331606084411454
63,-1.4643117396974148,0.014028080173102765
64,-1.463773259530172,0.013697611716577827
65,-1.463307871095935,0.013340563666784162
66,-1.4629164005518276,0.012957366914092588
67,-1.4625994862567524,0.012548550374641768
68,-1.4623577496987212,0.012114650742179787
69,-1.4621917252814467,0.011656248880107831
70,-1.462101714738652,0.011174032052089493
71,-1.4620879817256842,0.010668703219646898
72,-1.4621507345417784,0.010140990098393058
73,-1.4622899259394746,0.009591723620471858
74,-1.4625054355006692,0.009021761612879237
75,-1.4627971188397262,0.008431971888978337
76,-1.4631645781860214,0.00782331238538227
77,-1.463607271141872,0.0071967880695782025
78,-1.464124652866788,0.006553404787401792
79,-1.4647160385616458,0.005894213475166029
80,-1.4653804656510774,0.005220345023805914
81,-1.4661169389439017,0.004532938509341073
82,-1.4669244348710633,0.003833141378136103
83,-1.467801660334131,0.0031221690345005233
84,-1.4687471735653603,0.002401269692696061
85,-1.469759530634337,0.0016716920071288086
86,-1.470837163947405,0.000934711437490238
87,-1.4719782342372993,0.0001916530139127327
88,-1.4731808661573447,-0.0005561530043496387
89,-1.4744431624859409,-0.0013073722322083131
90,-1.475762989845371,-0.0020606372626628885
91,-1.4771380707070954,-0.0028145657607041206
92,-1.4785661251850606,-0.0035677752875670704
93,-1.4800447770751668,-0.004318874258085803
94,-1.4815714163480525,-0.0050664596911353605
95,-1.4831433981825406,-0.005809128729353412
96,-1.484758067159751,-0.006545477066651231
97,-1.4864125901829124,-0.007274103328928959
98,-1.4881039907527367,-0.007993618655250358
99,-1.4898292884880597,-0.008702634955374884
100,-1.4915854888515576,-0.009399763876059584
101,-1.4933694325669695,-0.010083640601926794
102,-1.4951778588396096,-0.010752933145901488
103,-1.497007505813025,-0.011406311262611758
104,-1.4988551016439302,-0.01204244538938187
105,-1.5007172554908543,-0.012660048205609625
106,-1.5025905085203615,-0.013257886162282944
107,-1.5044714022055024,-0.01383472872980284
108,-1.5063564723944411,-0.01438934671605269
109,-1.508242189431261,-0.014920569961577378
110,-1.510124995710603,-0.015427303894973245
111,-1.5120013355184039,-0.015908458595496618
112,-1.5138676502664967,-0.016362945645007895
113,-1.5157203647155983,-0.016789748164945523
114,-1.5175559259250173,-0.017187947266226283
115,-1.5193707860541776,-0.017556630935669643
116,-1.521161396037631,-0.01789488854729179
117,-1.5229242333468722,-0.018201889405587757
118,-1.5246558558617902,-0.01847692265747639
119,-1.5263528317167177,-0.018719287152222732
120,-1.5280117287109074,-0.018928282855180452
121,-1.529629177259438,-0.019103293725774705
122,-1.5312019508370285,-0.019243843361819717
123,-1.5327268404744794,-0.019349468449219965
124,-1.5342006388765481,-0.019419707580350644
125,-1.5356202465372224,-0.01945419490575692
126,-1.5369827328875234,-0.01945269406796545
127,-1.538285181865025,-0.019414976905968717
128,-1.5395247168502533,-0.0193408449663259
129,-1.5406986827625198,-0.019230247652335063
130,-1.5418045006103074,-0.019083180255822806
131,-1.5428396021902555,-0.018899645471091197
132,-1.5438016214898205,-0.0186797661884723
133,-1.544688370938641,-0.018423763009305462
134,-1.545497669592873,-0.018131859841695512
135,-1.5462274651927093,-0.017804349870686444
136,-1.5468759898683653,-0.017441667670725455
137,-1.547441513609846,-0.01704426505824716
138,-1.547922358606108,-0.016612619645004455
139,-1.5483171692363655,-0.016147355365354856
140,-1.5486247123166454,-0.015649147666521528
141,-1.5488437667240362,-0.015118677594801976
142,-1.5489733705740165,-0.014556733840225551
143,-1.5490128138426644,-0.013964202655183599
144,-1.5489613972741665,-0.013341974041396188
145,-1.5488185667991665,-0.012690993452844811
146,-1.548584127314343,-0.012012333149128175
147,-1.5482579381908856,-0.011307082986727012
148,-1.5478398589071347,-0.010576336455019422
149,-1.5473301423024692,-0.009821312355804704
150,-1.546729355939142,-0.009043320340888585
151,-1.5460380712010016,-0.008243671074767988
152,-1.545256859471897,-0.007423675221939835
153,-1.5443863856125726,-0.006584674027480192
154,-1.543427865440706,-0.0057281536434305
155,-1.542382715852351,-0.004855640530042627
156,-1.5412523540351948,-0.003968661055958634
157,-1.540038197176924,-0.003068741589820578
158,-1.5387417723307495,-0.002157437035121097
159,-1.537365142246936,-0.0012364064934165672
160,-1.5359105317835229,-0.0003073286257379358
161,-1.5343801658107232,0.000628117984371215
162,-1.5327762691987517,0.0015682547533673041
163,-1.5311011873046825,0.002511380079077199
164,-1.5293577538306309,0.0034557371837106573
165,-1.5275489239394486,0.004399567953674045
166,-1.5256776527685445,0.00534111430303503
167,-1.5237468954553286,0.0062786181458612585
168,-1.5217597309257882,0.007210307844909293
169,-1.5197196498926726,0.008134410840292327
170,-1.5176302246808573,0.009049167968409788
171,-1.5154950276149017,0.009952820065855858
172,-1.5133176310678165,0.01084360794827682
173,-1.5111017247114904,0.011719772892361294
174,-1.5088513074042982,0.012579611552039951
175,-1.5065704226540992,0.013421444857464056
176,-1.5042631139687517,0.014243593738784878
177,-1.5019334251035696,0.01504437905003335
178,-1.4995854986903947,0.015822140616618713
179,-1.4972236655287579,0.01657532787877878
180,-1.4948522689820383,0.01730242166503531
181,-1.4924756524136154,0.01800190280391007
182,-1.4900981597685452,0.018672252012278227
183,-1.4877242008756209,0.0193119916371887
184,-1.485358241015773,0.019919802602654347
185,-1.4830047322640851,0.020494400799248698
186,-1.4806681266956399,0.02103450211754528
187,-1.4783528773183618,0.021538822404936618
188,-1.47606345545636,0.022006144703421774
189,-1.4738042524889607,0.02243545098086789
190,-1.4715796275482809,0.02282575866323569
191,-1.469393939766438,0.02317608517648591
192,-1.4672515493450455,0.023485448179893485
193,-1.4651567729268298,0.023752959616313865
194,-1.463113717125522,0.02397795986206447
195,-1.4611264440126008,0.02415982273422857
196,-1.4591990156595456,0.02429792204988944
197,-1.457335494826002,0.024391632438159137
198,-1.4555398271377291,0.02444044922195273
199,-1.4538156317848245,0.02444411298274702
200,-1.4521664773150638,0.024402393903235828
201,-1.4505959322762216,0.02431506216611297
202,-1.4491075646428162,0.024181889719740095
203,-1.4477047432646208,0.024002792813199933
204,-1.446390414436618,0.023777936487780028
205,-1.445167473044447,0.023507510398106835
206,-1.444038813973748,0.023191704198806798
207,-1.443007329073624,0.022830710646598158
208,-1.4420756259969114,0.022424884996845744
209,-1.4412458194548914,0.02197482160302238
210,-1.4405199761161382,0.021481133957703406
211,-1.4399001626492258,0.02094443555346425
212,-1.439388438764437,0.020365344647045484
213,-1.4389864976481053,0.019744652576924086
214,-1.4386954981970377,0.01908336801434429
215,-1.4385165575287104,0.018382513358383243
216,-1.4384507927606,0.017643111008117975
217,-1.4384992894961497,0.016866196260344465
218,-1.4386626181619957,0.016053003305433123
219,-1.438941018820078,0.015204880546112031
220,-1.4393347382208013,0.014323171800614947
221,-1.4398439064704387,0.013409261806625713
222,-1.4404681607666074,0.012464693287104167
223,-1.441207008147312,0.011491046837631814
224,-1.4420599364523832,0.010489909489715905
225,-1.4430260596636617,0.009462976762151583
226,-1.4441041520412696,0.008412033586263601
227,-1.4452929754017414,0.007338867544831423
228,-1.4465911329183572,0.006245307904136339
229,-1.4479967445942634,0.005133295624633882
230,-1.449507838804258,0.0040047897552008506
231,-1.451122412027992,0.0028617570140487343
232,-1.452838062546943,0.001706242909379426
233,-1.4546521183259076,0.0005403377243958076
234,-1.4565619012793787,-0.0006338675817378473
235,-1.458564544642339,-0.0018142510968800415
236,-1.460656765442575,-0.0029986385504593765
237,-1.4628352252745356,-0.004184851373025666
238,-1.465096541483927,-0.005370705135289967
239,-1.4674369602358244,-0.006553985509789531
240,-1.4698525431610119,-0.007732472368387949
241,-1.472339347754686,-0.008903945399698184
242,-1.4748932402426256,-0.010066178878615661
243,-1.4775097814145375,-0.011216956761361318
244,-1.4801845050469706,-0.012354066473657624
245,-1.4829128943594352,-0.013475296770965728
246,-1.4856901445956094,-0.014578469376853228
247,-1.4885113510388164,-0.0156614282420271
248,-1.4913716038290077,-0.0167220176527876
249,-1.4942658390970347,-0.017758117017924933
250,-1.4971888216513924,-0.018767670161867193
251,-1.5001353079688813,-0.019748627229732654
252,-1.503100011212248,-0.020698954404421904
253,-1.5060774892458733,-0.021616718514210508
254,-1.5090622691650382,-0.022500023638150818
255,-1.512048872542822,-0.023346976435106623
256,-1.5150317498293733,-0.02415577065368874
257,-1.5180053144961791,-0.02492470402185352
258,-1.5209639812647346,-0.025652080194285023
259,-1.5239021506739887,-0.026336242387344028
260,-1.5268142317537916,-0.026975695322197204
261,-1.5296946488320473,-0.027568984340463096
262,-1.5325378255438369,-0.028114662678926698
263,-1.5353382394358486,-0.028611426946991834
264,-1.5380904446819368,-0.029058097796093647
265,-1.5407889994519983,-0.02945349997838347
266,-1.543428506429198,-0.02979652950716435
267,-1.546003743251106,-0.030086286514257404
268,-1.54850952641441,-0.030321907294376598
269,-1.5509406860504744,-0.030502545002487863
270,-1.5532922598253682,-0.03062754715861623
271,-1.5555594401195234,-0.03069638566936018
272,-1.5577374215462023,-0.030708534196835977
273,-1.5598215096379897,-0.030663558577679665
274,-1.561807375083913,-0.03056127795571625
275,-1.5636907527652368,-0.030401551599075614
276,-1.5654673781790855,-0.030184239767925246
277,-1.5671331850312844,-0.0299093346360243
278,-1.5686845595716394,-0.029577091054238846
279,-1.5701179495625641,-0.029187794965304555
280,-1.5714298040858337,-0.02874173358292236
281,-1.572616819336577,-0.02823933239755992
282,-1.5736762143109027,-0.027681277486063763
283,-1.574605273737244,-0.027068283781760828
284,-1.5754012844785603,-0.02640106776242014
285,-1.5760618246111684,-0.02568048635349019
286,-1.576585050014944,-0.02490764702625237
287,-1.5769691842672864,-0.024083683139488787
288,-1.57721245400174,-0.02320972985250087
289,-1.5773134150289427,-0.02228706056845678
290,-1.5772712390598027,-0.021317181571963665
291,-1.5770851652148306,-0.020301621448284873
292,-1.5767544366565232,-0.0192419107967523
293,-1.5762786555544994,-0.018139711514962534
294,-1.575658059719273,-0.01699689351011449
295,-1.574892952014438,-0.01581534495395165
296,-1.5739836403590823,-0.014596956183940593
297,-1.5729308119896153,-0.013343737138608293
298,-1.5717357904950287,-0.012057874440530865
299,-1.57039996027956,-0.010741568641066804
300,-1.5689247063890808,-0.0093970214226932
301,-1.567311754466897,-0.00802652785680532
302,-1.565563550965557,-0.006632543809011545
303,-1.563682628559572,-0.005217540970386014
304,-1.5616715199234539,-0.003783991032003118
305,-1.5595328347235355,-0.002334385464353268
306,-1.557269889797689,-0.0008713508690680319
307,-1.5548863809863487,0.0006024363410733181
308,-1.5523860076458644,0.0020843001817103836
309,-1.5497724695707877,0.0035715644747066387
310,-1.5470497283569256,0.0050615109320069455
311,-1.5442224291040114,0.0065513594665509226
312,-1.5412953254388049,0.008038330524998374
313,-1.538273170988066,0.009519644554008848
314,-1.535160744812437,0.010992517892947824
315,-1.5319632894736916,0.012454147626485723
316,-1.5286864425403004,0.013901753979074869
317,-1.5253358533150698,0.015332561547165854
318,-1.521917171100806,0.01674379492720953
319,-1.5184361542482316,0.01813267863180961
320,-1.514899031615776,0.01949650545035837
321,-1.5113121498634985,0.020832614429274948
322,-1.5076818553966684,0.022138344844929228
323,-1.5040144994875773,0.023411035494395053
324,-1.5003166410316233,0.024648078826825896
325,-1.4965950820336278,0.025847015898405087
326,-1.4928566332249111,0.027005409953141088
327,-1.4891081053367945,0.028120824235042145
328,-1.485356338895165,0.029190831933762762
329,-1.4816083350590266,0.030213180986635113
330,-1.4778711147728811,0.031185758662708295
331,-1.4741516958096643,0.03210645565704715
332,-1.470457096153017,0.03297316262280121
333,-1.4667943687036584,0.03378384116646072
334,-1.4631705108096116,0.03453673513087189
335,-1.4595924737110908,0.03523015624030054
336,-1.4560672086483106,0.03586241621901242
337,-1.4526016665392474,0.036431836850259365
338,-1.4492026829312499,0.03693696816643152
339,-1.445876906212644,0.03737658400993346
340,-1.4426309699877602,0.03774946736320583
341,-1.4394715076119562,0.038054404213678734
342,-1.4364049886020016,0.03829036432375074
343,-1.4334375562617674,0.03845660277074339
344,-1.4305753184098842,0.03855239911441268
345,-1.42782438267708,0.0385770340505838
346,-1.425190662391375,0.038529950674355974
347,-1.4226796003814453,0.038410921016616646
348,-1.4202965723526106,0.03821975679904827
349,-1.418046954061945,0.037956269974544585
350,-1.4159359243534368,0.03762040649609465
351,-1.4139680526220424,0.037212470796416555
352,-1.4121477931485364,0.03673282660586075
353,-1.410479600230288,0.03618183765944928
354,-1.4089677500384086,0.035559970851664666
355,-1.407615793297243,0.034868062163147036
356,-1.4064270983530691,0.03410703007795462
357,-1.4054050335521648,0.033277793080145494
358,-1.404552819174108,0.032381344115553656
359,-1.4038728724236993,0.03141903436267282
360,-1.4033673409882983,0.030392322462978585
361,-1.4030383723877082,0.029302667075650136
362,-1.4028880005669524,0.028151577195151378
363,-1.4029174254596488,0.026940888919707324
364,-1.4031274759942085,0.025672568602441343
365,-1.4035189794370502,0.024348582911651876
366,-1.4040926828076004,0.02297093010549991
367,-1.404848515669275,0.02154188898752492
368,-1.4057859304588773,0.02006388410581454
369,-1.4069043736523466,0.018539341182151198
370,-1.408203196087038,0.016970715328742482
371,-1.4096809710584703,0.015360691087554099
372,-1.4113360010920148,0.013712024122773628
373,-1.4131664246004856,0.012027512517871649
374,-1.4151698123472587,0.01031009557712671
375,-1.4173435986908045,0.008562744630697167
376,-1.419684794706596,0.006788525801094607
377,-1.422190029091427,0.004990584895628968
378,-1.4248557786021354,0.0031720978054255236
379,-1.4276779773597787,0.0013363387089648602
380,-1.4306524126028557,-0.0005133941686615026
381,-1.4337745121805974,-0.0023737479947173916
382,-1.437039319381049,-0.00424131873052428
383,-1.4404417570819479,-0.006112687943979065
384,-1.4439762643085705,-0.00798438921606563
385,-1.4476371286406629,-0.009852944647399432
386,-1.4514183540193695,-0.011714859068882977
387,-1.4553135862705395,-0.013566624767678294
388,-1.4593163823089825,-0.015404732497970745
389,-1.4634198970231274,-0.017225678769356028
390,-1.4676171328791061,-0.019025967858849382
391,-1.471900923121863,-0.020802115291912202
392,-1.476263758827471,-0.022550675852978316
393,-1.480698074255282,-0.024268213440538054
394,-1.4851960563163757,-0.0259513402135313
395,-1.4897496969061983,-0.027596720022484745
396,-1.4943509307862364,-0.02920103396267574
397,-1.4989914490429925,-0.030761059922901547
398,-1.5036628715394362,-0.032273613871065907
399,-1.5083567234498603,-0.033735567409924415
400,-1.5130643775088894,-0.03514391424157418
401,-1.5177771844793257,-0.036495671030781114
402,-1.5224864021779518,-0.03778797680184675
403,-1.5271832381109673,-0.0390180745415514
404,-1.53185888508421,-0.040183245783244906
405,-1.5365045076363626,-0.04128095478397279
406,-1.541111273561469,-0.04230872542388004
407,-1.5456703626221455,-0.043264184042335174
408,-1.5501730096871045,-0.04414514690127197
409,-1.5546104635372808,-0.04494946444065561
410,-1.5589740692361544,-0.045675177813788985
411,-1.5632552615150863,-0.04632046818118931
412,-1.5674455166206007,-0.04688357693075358
413,-1.5715365157440973,-0.04736299664034266
414,-1.5755200003611187,-0.04775728588399621
415,-1.5793878098767604,-0.048065112705817356
416,-1.583132170361847,-0.04828548870196927
417,-1.5867453692542723,-0.048417475826095756
418,-1.590219699822633,-0.04846014386179028
419,-1.5935477887140193,-0.04841283305022312
420,-1.5967227412930025,-0.04827521586886629
421,-1.5997376983404759,-0.04804698512821579
422,-1.602585820949793,-0.04772785058334166
423,-1.6052607774895733,-0.04731785100631344
424,-1.607756754923772,-0.04681732350182179
425,-1.6100679629286756,-0.04622661596648931
426,-1.6121886590849093,-0.045546107068436495
427,-1.614113789900887,-0.04477655070466043
428,-1.615838812644194,-0.04391895143786645
429,-1.617359196310608,-0.04297431841160762
430,-1.6186705026522428,-0.04194371013391107
431,-1.6197691525624922,-0.040828587374643316
432,-1.6206520296055908,-0.039630606878773435
433,-1.6213160216920293,-0.03835142670180754
434,-1.621758174673629,-0.036992776716209166
435,-1.6219765310767553,-0.03555679136706527
436,-1.62196952002161,-0.03404574635519535
437,-1.621735571443272,-0.03246191751867382
438,-1.621273360170281,-0.03080767689022063
439,-1.6205826425106928,-0.02908577582575611
440,-1.6196634728684174,-0.027299058570410574
441,-1.6185159052001608,-0.025450369332370007
442,-1.6171402757271531,-0.023542652279653003
443,-1.615538123145088,-0.02157920755976225
444,-1.6137112831782048,-0.0195634132045756
445,-1.611661591550743,-0.017498647245971454
446,-1.6093909700392186,-0.015388315548686068
